 # Detector n:            1   V25neut   
 # N. of energy intervals         602
  9.7783399E-04  1.0025901E-03  0.4637528       99.00000    
  1.0025901E-03  1.0539900E-03  0.3290603       99.00000    
  1.0539900E-03  1.1080300E-03  0.3018421       99.00000    
  1.1080300E-03  1.1648400E-03  8.7320849E-02   99.00000    
  1.1648400E-03  1.1943300E-03  0.2622677       99.00000    
  1.1943300E-03  1.2245600E-03  0.6901695       99.00000    
  1.2245600E-03  1.2873500E-03  0.3792257       99.00000    
  1.2873500E-03  1.3533500E-03  0.3172144       99.00000    
  1.3533500E-03  1.4227401E-03  0.2642295       99.00000    
  1.4227401E-03  1.4956900E-03  0.3420975       99.00000    
  1.4956900E-03  1.5335500E-03  0.3583457       99.00000    
  1.5335500E-03  1.5723699E-03  0.2093548       99.00000    
  1.5723699E-03  1.6121800E-03  0.2032300       99.00000    
  1.6121800E-03  1.6529900E-03  0.1928613       99.00000    
  1.6529900E-03  1.7377400E-03  0.4839225       99.00000    
  1.7377400E-03  1.8268300E-03  0.4826495       99.00000    
  1.8268300E-03  1.8730800E-03  0.2028161       99.00000    
  1.8730800E-03  1.9205000E-03  0.5685163       99.00000    
  1.9205000E-03  1.9691200E-03  0.3804690       99.00000    
  1.9691200E-03  2.0189700E-03  0.3530284       99.00000    
  2.0189700E-03  2.1224800E-03  0.3602996       99.00000    
  2.1224800E-03  2.2313001E-03  7.8465447E-02   99.00000    
  2.2313001E-03  2.2688799E-03  0.4743493       99.00000    
  2.2688799E-03  2.3068599E-03   0.000000       0.000000    
  2.3068599E-03  2.3457000E-03  9.9135548E-02   99.00000    
  2.3457000E-03  2.3652499E-03   0.000000       0.000000    
  2.3652499E-03  2.3852000E-03  0.1398799       99.00000    
  2.3852000E-03  2.4251300E-03  0.1534753       99.00000    
  2.4251300E-03  2.4659701E-03  0.3939084       99.00000    
  2.4659701E-03  2.5923999E-03  0.5063003       99.00000    
  2.5923999E-03  2.7253199E-03  8.2521543E-02   99.00000    
  2.7253199E-03  2.8650500E-03  9.2379816E-02   99.00000    
  2.8650500E-03  3.0119400E-03  0.1394085       99.00000    
  3.0119400E-03  3.0881900E-03  0.2291659       99.00000    
  3.0881900E-03  3.1663701E-03  0.1095851       99.00000    
  3.1663701E-03  3.2465300E-03  0.2684827       99.00000    
  3.2465300E-03  3.3287101E-03  0.2493577       99.00000    
  3.3287101E-03  3.4993801E-03  0.2464851       99.00000    
  3.4993801E-03  3.6787901E-03  0.1822088       99.00000    
  3.6787901E-03  3.8674099E-03  0.2128441       99.00000    
  3.8674099E-03  4.0656999E-03  0.1208583       99.00000    
  4.0656999E-03  4.2741499E-03  9.4942711E-02   99.00000    
  4.2741499E-03  4.4932901E-03  0.1328499       99.00000    
  4.4932901E-03  4.6070400E-03  9.4094202E-02   99.00000    
  4.6070400E-03  4.7236700E-03  0.4606984       99.00000    
  4.7236700E-03  4.8432499E-03  8.4018320E-02   99.00000    
  4.8432499E-03  4.9658502E-03  0.1662868       99.00000    
  4.9658502E-03  5.2204598E-03  0.1274308       99.00000    
  5.2204598E-03  5.4881200E-03  5.8881428E-02   99.00000    
  5.4881200E-03  5.7695000E-03  0.1441740       99.00000    
  5.7695000E-03  5.9155500E-03  1.9071480E-02   99.00000    
  5.9155500E-03  6.0653100E-03  9.4243549E-02   99.00000    
  6.0653100E-03  6.2188501E-03  0.1947133       99.00000    
  6.2188501E-03  6.3762800E-03  8.1195801E-02   99.00000    
  6.3762800E-03  6.5377001E-03  7.2795816E-02   99.00000    
  6.5377001E-03  6.5923799E-03  0.1969017       99.00000    
  6.5923799E-03  6.6475999E-03  9.0660214E-02   99.00000    
  6.6475999E-03  6.7031998E-03  0.2497565       99.00000    
  6.7031998E-03  6.8728901E-03  9.8503798E-02   99.00000    
  6.8728901E-03  7.0468802E-03  1.2644726E-02   99.00000    
  7.0468802E-03  7.2252699E-03  0.1135356       99.00000    
  7.2252699E-03  7.4081798E-03  0.1382493       99.00000    
  7.4081798E-03  7.5957198E-03  5.4493271E-02   99.00000    
  7.5957198E-03  7.7880099E-03  4.3750029E-02   99.00000    
  7.7880099E-03  7.9851598E-03  7.3048428E-02   99.00000    
  7.9851598E-03  8.1873098E-03  3.4008775E-02   99.00000    
  8.1873098E-03  8.3945701E-03  3.1893458E-02   99.00000    
  8.3945701E-03  8.6070802E-03  2.6628500E-02   99.00000    
  8.6070802E-03  8.8249696E-03  9.6102722E-02   99.00000    
  8.8249696E-03  9.0483697E-03  0.1775731       99.00000    
  9.0483697E-03  9.2774397E-03  1.9606184E-02   99.00000    
  9.2774397E-03  9.5122904E-03  0.1027645       99.00000    
  9.5122904E-03  9.7530996E-03  0.1035836       99.00000    
  9.7530996E-03  9.9999998E-03  3.1953465E-02   99.00000    
  9.9999998E-03  1.0253200E-02  9.1033736E-03   99.00000    
  1.0253200E-02  1.0512700E-02  0.1846973       99.00000    
  1.0512700E-02  1.0778800E-02  1.8183954E-02   99.00000    
  1.0778800E-02  1.1051700E-02  4.5207579E-02   99.00000    
  1.1051700E-02  1.1331500E-02  2.2527233E-02   99.00000    
  1.1331500E-02  1.1618300E-02  2.6302971E-02   99.00000    
  1.1618300E-02  1.1912500E-02  2.2056838E-02   99.00000    
  1.1912500E-02  1.2214000E-02  2.1039553E-02   99.00000    
  1.2214000E-02  1.2523200E-02  3.3180773E-02   99.00000    
  1.2523200E-02  1.2840200E-02  6.3949332E-02   99.00000    
  1.2840200E-02  1.3165300E-02  3.4947377E-02   99.00000    
  1.3165300E-02  1.3498600E-02  3.1180773E-02   99.00000    
  1.3498600E-02  1.3840300E-02  8.6709131E-03   99.00000    
  1.3840300E-02  1.4190700E-02  3.2736421E-02   99.00000    
  1.4190700E-02  1.4549900E-02  5.4608695E-02   99.00000    
  1.4549900E-02  1.4918300E-02  7.5197250E-02   99.00000    
  1.4918300E-02  1.5295900E-02  4.8416767E-02   99.00000    
  1.5295900E-02  1.5683100E-02  1.1959307E-02   99.00000    
  1.5683100E-02  1.6080100E-02  2.0132888E-02   99.00000    
  1.6080100E-02  1.6487200E-02  5.6323032E-03   99.00000    
  1.6487200E-02  1.6904600E-02  1.7879639E-02   99.00000    
  1.6904600E-02  1.7332500E-02  1.5017439E-02   99.00000    
  1.7332500E-02  1.7771300E-02  6.1304547E-02   99.00000    
  1.7771300E-02  1.8221200E-02  3.4008373E-02   99.00000    
  1.8221200E-02  1.8682500E-02  1.1731783E-02   99.00000    
  1.8682500E-02  1.9155400E-02  4.7790088E-02   99.00000    
  1.9155400E-02  1.9640300E-02  2.2640944E-02   99.00000    
  1.9640300E-02  2.0000000E-02  1.4361829E-02   99.00000    
  2.0000000E-02   14.00100      4.7584731E-04   99.00000    
   14.00100       28.00100      1.2843338E-04   99.00000    
   28.00100       42.00099      5.7370711E-05   99.00000    
   42.00099       56.00099      2.9792091E-05   99.00000    
   56.00099       70.00099      1.3279906E-05   99.00000    
   70.00099       84.00098      6.3647503E-06   99.00000    
   84.00098       98.00098      4.7146800E-06   99.00000    
   98.00098       112.0010      1.1000819E-06   99.00000    
   112.0010       126.0010      1.1000858E-06   99.00000    
   126.0010       140.0010      6.2861272E-07   99.00000    
   140.0010       154.0010      1.5715072E-07   99.00000    
   154.0010       168.0010      1.5715079E-07   99.00000    
   168.0010       182.0010      1.5715258E-07   99.00000    
   182.0010       196.0010       0.000000       0.000000    
   196.0010       210.0010       0.000000       0.000000    
   210.0010       224.0010       0.000000       0.000000    
   224.0010       238.0010       0.000000       0.000000    
   238.0010       252.0010       0.000000       0.000000    
   252.0010       266.0010       0.000000       0.000000    
   266.0010       280.0010       0.000000       0.000000    
   280.0010       294.0010       0.000000       0.000000    
   294.0010       308.0010       0.000000       0.000000    
   308.0010       322.0010       0.000000       0.000000    
   322.0010       336.0009       0.000000       0.000000    
   336.0009       350.0009       0.000000       0.000000    
   350.0009       364.0009       0.000000       0.000000    
   364.0009       378.0009       0.000000       0.000000    
   378.0009       392.0009       0.000000       0.000000    
   392.0009       406.0009       0.000000       0.000000    
   406.0009       420.0009       0.000000       0.000000    
   420.0009       434.0009       0.000000       0.000000    
   434.0009       448.0009       0.000000       0.000000    
   448.0009       462.0009       0.000000       0.000000    
   462.0009       476.0009       0.000000       0.000000    
   476.0009       490.0009       0.000000       0.000000    
   490.0009       504.0009       0.000000       0.000000    
   504.0009       518.0009       0.000000       0.000000    
   518.0009       532.0009       0.000000       0.000000    
   532.0009       546.0009       0.000000       0.000000    
   546.0009       560.0009       0.000000       0.000000    
   560.0009       574.0009       0.000000       0.000000    
   574.0009       588.0009       0.000000       0.000000    
   588.0009       602.0009       0.000000       0.000000    
   602.0009       616.0009       0.000000       0.000000    
   616.0009       630.0009       0.000000       0.000000    
   630.0009       644.0009       0.000000       0.000000    
   644.0009       658.0009       0.000000       0.000000    
   658.0009       672.0009       0.000000       0.000000    
   672.0009       686.0009       0.000000       0.000000    
   686.0009       700.0009       0.000000       0.000000    
   700.0009       714.0009       0.000000       0.000000    
   714.0009       728.0009       0.000000       0.000000    
   728.0009       742.0009       0.000000       0.000000    
   742.0009       756.0009       0.000000       0.000000    
   756.0009       770.0009       0.000000       0.000000    
   770.0009       784.0009       0.000000       0.000000    
   784.0009       798.0009       0.000000       0.000000    
   798.0009       812.0009       0.000000       0.000000    
   812.0009       826.0009       0.000000       0.000000    
   826.0009       840.0009       0.000000       0.000000    
   840.0009       854.0009       0.000000       0.000000    
   854.0009       868.0009       0.000000       0.000000    
   868.0009       882.0009       0.000000       0.000000    
   882.0009       896.0009       0.000000       0.000000    
   896.0009       910.0009       0.000000       0.000000    
   910.0009       924.0009       0.000000       0.000000    
   924.0009       938.0009       0.000000       0.000000    
   938.0009       952.0009       0.000000       0.000000    
   952.0009       966.0009       0.000000       0.000000    
   966.0009       980.0009       0.000000       0.000000    
   980.0009       994.0009       0.000000       0.000000    
   994.0009       1008.001       0.000000       0.000000    
   1008.001       1022.001       0.000000       0.000000    
   1022.001       1036.001       0.000000       0.000000    
   1036.001       1050.001       0.000000       0.000000    
   1050.001       1064.001       0.000000       0.000000    
   1064.001       1078.001       0.000000       0.000000    
   1078.001       1092.001       0.000000       0.000000    
   1092.001       1106.001       0.000000       0.000000    
   1106.001       1120.001       0.000000       0.000000    
   1120.001       1134.001       0.000000       0.000000    
   1134.001       1148.001       0.000000       0.000000    
   1148.001       1162.001       0.000000       0.000000    
   1162.001       1176.001       0.000000       0.000000    
   1176.001       1190.001       0.000000       0.000000    
   1190.001       1204.001       0.000000       0.000000    
   1204.001       1218.001       0.000000       0.000000    
   1218.001       1232.001       0.000000       0.000000    
   1232.001       1246.001       0.000000       0.000000    
   1246.001       1260.001       0.000000       0.000000    
   1260.001       1274.001       0.000000       0.000000    
   1274.001       1288.001       0.000000       0.000000    
   1288.001       1302.001       0.000000       0.000000    
   1302.001       1316.001       0.000000       0.000000    
   1316.001       1330.001       0.000000       0.000000    
   1330.001       1344.001       0.000000       0.000000    
   1344.001       1358.001       0.000000       0.000000    
   1358.001       1372.001       0.000000       0.000000    
   1372.001       1386.001       0.000000       0.000000    
   1386.001       1400.001       0.000000       0.000000    
   1400.001       1414.001       0.000000       0.000000    
   1414.001       1428.001       0.000000       0.000000    
   1428.001       1442.001       0.000000       0.000000    
   1442.001       1456.001       0.000000       0.000000    
   1456.001       1470.001       0.000000       0.000000    
   1470.001       1484.001       0.000000       0.000000    
   1484.001       1498.001       0.000000       0.000000    
   1498.001       1512.001       0.000000       0.000000    
   1512.001       1526.001       0.000000       0.000000    
   1526.001       1540.001       0.000000       0.000000    
   1540.001       1554.001       0.000000       0.000000    
   1554.001       1568.001       0.000000       0.000000    
   1568.001       1582.001       0.000000       0.000000    
   1582.001       1596.001       0.000000       0.000000    
   1596.001       1610.001       0.000000       0.000000    
   1610.001       1624.001       0.000000       0.000000    
   1624.001       1638.001       0.000000       0.000000    
   1638.001       1652.001       0.000000       0.000000    
   1652.001       1666.001       0.000000       0.000000    
   1666.001       1680.001       0.000000       0.000000    
   1680.001       1694.001       0.000000       0.000000    
   1694.001       1708.001       0.000000       0.000000    
   1708.001       1722.001       0.000000       0.000000    
   1722.001       1736.001       0.000000       0.000000    
   1736.001       1750.001       0.000000       0.000000    
   1750.001       1764.001       0.000000       0.000000    
   1764.001       1778.001       0.000000       0.000000    
   1778.001       1792.001       0.000000       0.000000    
   1792.001       1806.001       0.000000       0.000000    
   1806.001       1820.001       0.000000       0.000000    
   1820.001       1834.001       0.000000       0.000000    
   1834.001       1848.001       0.000000       0.000000    
   1848.001       1862.001       0.000000       0.000000    
   1862.001       1876.001       0.000000       0.000000    
   1876.001       1890.001       0.000000       0.000000    
   1890.001       1904.001       0.000000       0.000000    
   1904.001       1918.001       0.000000       0.000000    
   1918.001       1932.001       0.000000       0.000000    
   1932.001       1946.001       0.000000       0.000000    
   1946.001       1960.001       0.000000       0.000000    
   1960.001       1974.001       0.000000       0.000000    
   1974.001       1988.001       0.000000       0.000000    
   1988.001       2002.001       0.000000       0.000000    
   2002.001       2016.001       0.000000       0.000000    
   2016.001       2030.001       0.000000       0.000000    
   2030.001       2044.001       0.000000       0.000000    
   2044.001       2058.001       0.000000       0.000000    
   2058.001       2072.001       0.000000       0.000000    
   2072.001       2086.001       0.000000       0.000000    
   2086.001       2100.001       0.000000       0.000000    
   2100.001       2114.001       0.000000       0.000000    
   2114.001       2128.001       0.000000       0.000000    
   2128.001       2142.001       0.000000       0.000000    
   2142.001       2156.001       0.000000       0.000000    
   2156.001       2170.001       0.000000       0.000000    
   2170.001       2184.001       0.000000       0.000000    
   2184.001       2198.001       0.000000       0.000000    
   2198.001       2212.001       0.000000       0.000000    
   2212.001       2226.001       0.000000       0.000000    
   2226.001       2240.001       0.000000       0.000000    
   2240.001       2254.001       0.000000       0.000000    
   2254.001       2268.001       0.000000       0.000000    
   2268.001       2282.001       0.000000       0.000000    
   2282.001       2296.001       0.000000       0.000000    
   2296.001       2310.001       0.000000       0.000000    
   2310.001       2324.001       0.000000       0.000000    
   2324.001       2338.001       0.000000       0.000000    
   2338.001       2352.001       0.000000       0.000000    
   2352.001       2366.001       0.000000       0.000000    
   2366.001       2380.001       0.000000       0.000000    
   2380.001       2394.001       0.000000       0.000000    
   2394.001       2408.001       0.000000       0.000000    
   2408.001       2422.001       0.000000       0.000000    
   2422.001       2436.001       0.000000       0.000000    
   2436.001       2450.001       0.000000       0.000000    
   2450.001       2464.001       0.000000       0.000000    
   2464.001       2478.001       0.000000       0.000000    
   2478.001       2492.001       0.000000       0.000000    
   2492.001       2506.001       0.000000       0.000000    
   2506.001       2520.001       0.000000       0.000000    
   2520.001       2534.001       0.000000       0.000000    
   2534.001       2548.001       0.000000       0.000000    
   2548.001       2562.001       0.000000       0.000000    
   2562.001       2576.001       0.000000       0.000000    
   2576.001       2590.001       0.000000       0.000000    
   2590.001       2604.001       0.000000       0.000000    
   2604.001       2618.001       0.000000       0.000000    
   2618.001       2632.001       0.000000       0.000000    
   2632.001       2646.001       0.000000       0.000000    
   2646.001       2660.001       0.000000       0.000000    
   2660.001       2674.001       0.000000       0.000000    
   2674.001       2688.000       0.000000       0.000000    
   2688.000       2702.000       0.000000       0.000000    
   2702.000       2716.000       0.000000       0.000000    
   2716.000       2730.000       0.000000       0.000000    
   2730.000       2744.000       0.000000       0.000000    
   2744.000       2758.000       0.000000       0.000000    
   2758.000       2772.000       0.000000       0.000000    
   2772.000       2786.000       0.000000       0.000000    
   2786.000       2800.000       0.000000       0.000000    
   2800.000       2814.000       0.000000       0.000000    
   2814.000       2828.000       0.000000       0.000000    
   2828.000       2842.000       0.000000       0.000000    
   2842.000       2856.000       0.000000       0.000000    
   2856.000       2870.000       0.000000       0.000000    
   2870.000       2884.000       0.000000       0.000000    
   2884.000       2898.000       0.000000       0.000000    
   2898.000       2912.000       0.000000       0.000000    
   2912.000       2926.000       0.000000       0.000000    
   2926.000       2940.000       0.000000       0.000000    
   2940.000       2954.000       0.000000       0.000000    
   2954.000       2968.000       0.000000       0.000000    
   2968.000       2982.000       0.000000       0.000000    
   2982.000       2996.000       0.000000       0.000000    
   2996.000       3010.000       0.000000       0.000000    
   3010.000       3024.000       0.000000       0.000000    
   3024.000       3038.000       0.000000       0.000000    
   3038.000       3052.000       0.000000       0.000000    
   3052.000       3066.000       0.000000       0.000000    
   3066.000       3080.000       0.000000       0.000000    
   3080.000       3094.000       0.000000       0.000000    
   3094.000       3108.000       0.000000       0.000000    
   3108.000       3122.000       0.000000       0.000000    
   3122.000       3136.000       0.000000       0.000000    
